# p [Pa]        T [K] (adiabat) T [K] (T1)      T [K] (Proxima) T [K] (M3)      T [K] (K5)      T [K] (Sun)     T [K] (F1)      
1.000000e+00    2.129524e+02    5.868366e+02    5.868514e+02    5.710664e+02    5.253157e+02    4.889696e+02    4.620230e+02    
1.336458e+00    2.150786e+02    6.254904e+02    6.220462e+02    6.025007e+02    5.542316e+02    5.148228e+02    4.864514e+02    
1.786120e+00    2.172492e+02    6.266171e+02    6.243277e+02    6.034169e+02    5.545975e+02    5.149164e+02    4.866497e+02    
2.387074e+00    2.194671e+02    6.244979e+02    6.221280e+02    6.001211e+02    5.503223e+02    5.101615e+02    4.826533e+02    
3.190225e+00    2.217295e+02    6.195495e+02    6.171113e+02    5.946408e+02    5.443398e+02    5.039096e+02    4.773779e+02    
4.263601e+00    2.240407e+02    6.116490e+02    6.090909e+02    5.863685e+02    5.365905e+02    4.964969e+02    4.713337e+02    
5.698124e+00    2.264050e+02    6.016569e+02    5.989577e+02    5.758520e+02    5.273047e+02    4.878774e+02    4.644161e+02    
7.615304e+00    2.288224e+02    5.905092e+02    5.875321e+02    5.644975e+02    5.175312e+02    4.788547e+02    4.571070e+02    
1.017753e+01    2.312906e+02    5.785621e+02    5.753471e+02    5.532396e+02    5.079925e+02    4.704137e+02    4.501585e+02    
1.360185e+01    2.338166e+02    5.662941e+02    5.629610e+02    5.422783e+02    4.987586e+02    4.628143e+02    4.439894e+02    
1.817830e+01    2.364028e+02    5.547540e+02    5.513711e+02    5.322532e+02    4.903483e+02    4.560978e+02    4.387010e+02    
2.429453e+01    2.390446e+02    5.454027e+02    5.420528e+02    5.243615e+02    4.838911e+02    4.509252e+02    4.347389e+02    
3.246862e+01    2.483779e+02    5.389078e+02    5.356047e+02    5.191030e+02    4.800903e+02    4.481672e+02    4.329189e+02    
4.339295e+01    2.669421e+02    5.349477e+02    5.316726e+02    5.162453e+02    4.787714e+02    4.479287e+02    4.335123e+02    
5.799285e+01    2.868605e+02    5.335472e+02    5.303066e+02    5.158432e+02    4.798059e+02    4.499909e+02    4.363191e+02    
7.750501e+01    3.082132e+02    5.350788e+02    5.318736e+02    5.181976e+02    4.834358e+02    4.545925e+02    4.414823e+02    
1.035822e+02    3.310784e+02    5.395620e+02    5.363727e+02    5.233084e+02    4.897842e+02    4.620308e+02    4.493628e+02    
1.384332e+02    3.555331e+02    5.468788e+02    5.437112e+02    5.310189e+02    4.988079e+02    4.723832e+02    4.598870e+02    
1.850102e+02    3.816520e+02    5.567036e+02    5.535448e+02    5.409478e+02    5.103755e+02    4.856236e+02    4.733065e+02    
2.472584e+02    4.095078e+02    5.683734e+02    5.651994e+02    5.525308e+02    5.240153e+02    5.014049e+02    4.896409e+02    
3.304505e+02    4.391708e+02    5.816540e+02    5.784287e+02    5.656341e+02    5.393325e+02    5.195705e+02    5.088529e+02    
4.416332e+02    4.707088e+02    5.956437e+02    5.923356e+02    5.795347e+02    5.555816e+02    5.394079e+02    5.306325e+02    
5.902242e+02    5.041867e+02    6.099063e+02    6.064719e+02    5.937529e+02    5.725524e+02    5.603256e+02    5.545708e+02    
7.888098e+02    5.396666e+02    6.246838e+02    6.210466e+02    6.083432e+02    5.903088e+02    5.828359e+02    5.827187e+02    
1.054211e+03    5.772067e+02    6.411148e+02    6.372088e+02    6.244300e+02    6.098299e+02    6.086498e+02    6.135287e+02    
1.408909e+03    6.168614e+02    6.605872e+02    6.563592e+02    6.431230e+02    6.323437e+02    6.408308e+02    6.459677e+02    
1.882948e+03    6.586800e+02    6.825266e+02    6.784071e+02    6.658671e+02    6.600175e+02    6.747133e+02    6.801218e+02    
2.516481e+03    7.027061e+02    7.046428e+02    7.013247e+02    6.912200e+02    6.921333e+02    7.103873e+02    7.160818e+02    
3.363171e+03    7.489769e+02    7.248475e+02    7.221458e+02    7.158297e+02    7.259785e+02    7.479475e+02    7.539430e+02    
4.494736e+03    7.975224e+02    7.448179e+02    7.430217e+02    7.411970e+02    7.659399e+02    7.874936e+02    7.938061e+02    
6.007026e+03    8.483653e+02    7.640026e+02    7.635930e+02    7.680755e+02    8.081010e+02    8.291306e+02    8.357768e+02    
8.028139e+03    9.015216e+02    7.802697e+02    7.819795e+02    7.962162e+02    8.525829e+02    8.729690e+02    8.799667e+02    
1.072927e+04    9.570021e+02    7.944275e+02    7.998972e+02    8.400439e+02    8.995132e+02    9.191253e+02    9.264930e+02    
1.433922e+04    1.014815e+03    8.093589e+02    8.212142e+02    8.862840e+02    9.490268e+02    9.677221e+02    9.754793e+02    
1.916376e+04    1.074979e+03    8.269352e+02    8.508744e+02    9.350695e+02    1.001266e+03    1.018888e+03    1.027056e+03    
2.561157e+04    1.137498e+03    8.546950e+02    9.019033e+02    9.865403e+02    1.056381e+03    1.072760e+03    1.081359e+03    
3.422878e+04    1.202385e+03    8.966823e+02    9.559925e+02    1.040844e+03    1.114529e+03    1.129480e+03    1.138533e+03    
4.574533e+04    1.269661e+03    9.376694e+02    1.013325e+03    1.098137e+03    1.175878e+03    1.189198e+03    1.198731e+03    
6.113671e+04    1.339360e+03    9.700397e+02    1.068214e+03    1.158584e+03    1.240604e+03    1.252075e+03    1.262111e+03    
8.170665e+04    1.411524e+03    9.960093e+02    1.116949e+03    1.222358e+03    1.308893e+03    1.318275e+03    1.328843e+03    
1.091975e+05    1.486206e+03    1.015275e+03    1.159920e+03    1.289643e+03    1.380941e+03    1.387976e+03    1.399102e+03    
1.459379e+05    1.563467e+03    1.029537e+03    1.200210e+03    1.360631e+03    1.456955e+03    1.461362e+03    1.473077e+03    
1.950399e+05    1.643375e+03    1.041800e+03    1.239212e+03    1.429044e+03    1.537153e+03    1.538629e+03    1.550962e+03    
2.606626e+05    1.726007e+03    1.053548e+03    1.274073e+03    1.480979e+03    1.605451e+03    1.619980e+03    1.632966e+03    
3.483646e+05    1.811447e+03    1.065495e+03    1.305376e+03    1.522122e+03    1.656926e+03    1.702570e+03    1.719306e+03    
4.655746e+05    1.899787e+03    1.077845e+03    1.333347e+03    1.555726e+03    1.698101e+03    1.760953e+03    1.790829e+03    
6.222210e+05    1.991126e+03    1.090301e+03    1.358174e+03    1.583667e+03    1.731951e+03    1.806021e+03    1.843439e+03    
8.315722e+05    2.085571e+03    1.102441e+03    1.379620e+03    1.606428e+03    1.759403e+03    1.841318e+03    1.884022e+03    
1.111361e+06    2.183235e+03    1.113621e+03    1.397092e+03    1.623929e+03    1.780787e+03    1.868394e+03    1.915257e+03    
1.485288e+06    2.284240e+03    1.122805e+03    1.410220e+03    1.636545e+03    1.796825e+03    1.888715e+03    1.939141e+03    
1.985025e+06    2.388715e+03    1.130026e+03    1.420103e+03    1.645947e+03    1.809421e+03    1.904758e+03    1.958502e+03    
2.652902e+06    2.496796e+03    1.135675e+03    1.427797e+03    1.653376e+03    1.819802e+03    1.917981e+03    1.974924e+03    
3.545492e+06    2.608627e+03    1.140124e+03    1.433900e+03    1.659389e+03    1.828491e+03    1.929012e+03    1.989084e+03    
4.738401e+06    2.724359e+03    1.143574e+03    1.438677e+03    1.664197e+03    1.835709e+03    1.938166e+03    2.001327e+03    
6.332675e+06    2.844151e+03    1.146168e+03    1.442325e+03    1.667976e+03    1.841662e+03    1.945737e+03    2.011949e+03    
8.463354e+06    2.968167e+03    1.148062e+03    1.445060e+03    1.670929e+03    1.846572e+03    1.952023e+03    2.021221e+03    
1.131092e+07    3.096580e+03    1.149373e+03    1.447030e+03    1.673187e+03    1.850562e+03    1.957181e+03    2.029228e+03    
1.511657e+07    3.229567e+03    1.150165e+03    1.448311e+03    1.674794e+03    1.853617e+03    1.961184e+03    2.035804e+03    
2.020265e+07    3.367311e+03    1.150575e+03    1.449034e+03    1.675831e+03    1.855780e+03    1.964069e+03    2.040860e+03    
2.700000e+07    3.510000e+03    1.150764e+03    1.449415e+03    1.676486e+03    1.857304e+03    1.966152e+03    2.044746e+03    
