# p [Pa]        T [K] (adiabat) T [K] (T1)      T [K] (Proxima) T [K] (M3)      T [K] (K5)      T [K] (Sun)     T [K] (F1)      
1.000000e+00    2.129524e+02    2.312133e+02    2.307425e+02    2.217298e+02    1.989033e+02    2.060490e+02    2.060010e+02    
1.336458e+00    2.150786e+02    2.309062e+02    2.307753e+02    2.234497e+02    2.012908e+02    2.083768e+02    2.083256e+02    
1.786120e+00    2.172492e+02    2.207232e+02    2.206670e+02    2.149237e+02    2.033776e+02    2.107409e+02    2.106903e+02    
2.387074e+00    2.194671e+02    2.159155e+02    2.158747e+02    2.129197e+02    2.056620e+02    2.131590e+02    2.131087e+02    
3.190225e+00    2.217295e+02    2.154657e+02    2.154253e+02    2.153862e+02    2.080338e+02    2.156322e+02    2.155826e+02    
4.263601e+00    2.240407e+02    2.180019e+02    2.179662e+02    2.179395e+02    2.105086e+02    2.181621e+02    2.181137e+02    
5.698124e+00    2.264050e+02    2.206094e+02    2.205629e+02    2.205318e+02    2.130906e+02    2.207514e+02    2.207043e+02    
7.615304e+00    2.288224e+02    2.232832e+02    2.232222e+02    2.231989e+02    2.157858e+02    2.234021e+02    2.233564e+02    
1.017753e+01    2.312906e+02    2.260249e+02    2.259467e+02    2.259303e+02    2.186013e+02    2.261161e+02    2.260721e+02    
1.360185e+01    2.338166e+02    2.288296e+02    2.287384e+02    2.287276e+02    2.215376e+02    2.288963e+02    2.288540e+02    
1.817830e+01    2.364028e+02    2.316831e+02    2.315932e+02    2.315806e+02    2.245963e+02    2.317453e+02    2.317044e+02    
2.429453e+01    2.390446e+02    2.346095e+02    2.345193e+02    2.345101e+02    2.277826e+02    2.346658e+02    2.346261e+02    
3.246862e+01    2.417491e+02    2.376082e+02    2.375196e+02    2.375086e+02    2.310987e+02    2.376607e+02    2.376218e+02    
4.339295e+01    2.445188e+02    2.406842e+02    2.405969e+02    2.405843e+02    2.345444e+02    2.407331e+02    2.406944e+02    
5.799285e+01    2.473538e+02    2.438405e+02    2.437541e+02    2.437403e+02    2.381165e+02    2.438857e+02    2.438470e+02    
7.750501e+01    2.502556e+02    2.470800e+02    2.469944e+02    2.469795e+02    2.418083e+02    2.471216e+02    2.470825e+02    
1.035822e+02    2.532325e+02    2.504062e+02    2.503212e+02    2.503053e+02    2.456113e+02    2.504440e+02    2.504043e+02    
1.384332e+02    2.562796e+02    2.538224e+02    2.537379e+02    2.537211e+02    2.495178e+02    2.538563e+02    2.538159e+02    
1.850102e+02    2.594063e+02    2.573324e+02    2.572481e+02    2.572306e+02    2.535251e+02    2.573624e+02    2.573209e+02    
2.472584e+02    2.626126e+02    2.609402e+02    2.608558e+02    2.608377e+02    2.576316e+02    2.609661e+02    2.609232e+02    
3.304505e+02    2.659002e+02    2.646497e+02    2.645650e+02    2.645465e+02    2.618337e+02    2.646714e+02    2.646268e+02    
4.416332e+02    2.692726e+02    2.684653e+02    2.683799e+02    2.683611e+02    2.661253e+02    2.684826e+02    2.684360e+02    
5.902242e+02    2.727354e+02    2.723915e+02    2.723053e+02    2.722862e+02    2.705001e+02    2.724042e+02    2.723554e+02    
7.888098e+02    2.767188e+02    2.764331e+02    2.763458e+02    2.763266e+02    2.749541e+02    2.764411e+02    2.763895e+02    
1.054211e+03    2.808942e+02    2.805952e+02    2.805066e+02    2.804872e+02    2.794853e+02    2.805982e+02    2.805436e+02    
1.408909e+03    2.852186e+02    2.848831e+02    2.847930e+02    2.847735e+02    2.840935e+02    2.848809e+02    2.848229e+02    
1.882948e+03    2.896989e+02    2.893026e+02    2.892108e+02    2.891968e+02    2.887820e+02    2.892948e+02    2.892331e+02    
2.516481e+03    2.943428e+02    2.938596e+02    2.937660e+02    2.937586e+02    2.935746e+02    2.938458e+02    2.937800e+02    
3.363171e+03    2.991605e+02    2.985606e+02    2.984650e+02    2.984599e+02    2.984550e+02    2.985404e+02    2.984702e+02    
4.494736e+03    3.041593e+02    3.035190e+02    3.034511e+02    3.034794e+02    3.034484e+02    3.033853e+02    3.064040e+02    
6.007026e+03    3.093525e+02    3.157534e+02    3.159045e+02    3.163787e+02    3.142634e+02    3.229034e+02    3.256401e+02    
8.028139e+03    3.147505e+02    3.388482e+02    3.389872e+02    3.395174e+02    3.372411e+02    3.442022e+02    3.461090e+02    
1.072927e+04    3.203673e+02    3.636011e+02    3.637500e+02    3.643189e+02    3.618764e+02    3.668911e+02    3.678385e+02    
1.433922e+04    3.300967e+02    3.901619e+02    3.903217e+02    3.909321e+02    3.883112e+02    3.910575e+02    3.909322e+02    
1.916376e+04    3.544838e+02    4.186630e+02    4.188344e+02    4.194895e+02    4.166770e+02    4.168158e+02    4.154757e+02    
2.561157e+04    3.805321e+02    4.397999e+02    4.420322e+02    4.496976e+02    4.471150e+02    4.442707e+02    4.415602e+02    
3.422878e+04    4.083143e+02    4.572530e+02    4.606225e+02    4.717003e+02    4.793449e+02    4.735340e+02    4.692823e+02    
4.574533e+04    4.379008e+02    4.743069e+02    4.787581e+02    4.925124e+02    5.049482e+02    5.047248e+02    4.987448e+02    
6.113671e+04    4.693595e+02    4.911361e+02    4.967698e+02    5.135376e+02    5.306075e+02    5.379702e+02    5.300571e+02    
8.170665e+04    5.027555e+02    5.075137e+02    5.147373e+02    5.354321e+02    5.572005e+02    5.699824e+02    5.633352e+02    
1.091975e+05    5.381510e+02    5.231534e+02    5.325121e+02    5.579469e+02    5.851228e+02    6.031268e+02    5.987026e+02    
1.459379e+05    5.756044e+02    5.367170e+02    5.487883e+02    5.801015e+02    6.132163e+02    6.365138e+02    6.362905e+02    
1.950399e+05    6.151701e+02    5.477995e+02    5.634535e+02    6.019798e+02    6.417578e+02    6.712152e+02    6.762382e+02    
2.606626e+05    6.568979e+02    5.568887e+02    5.769520e+02    6.236707e+02    6.711993e+02    7.079484e+02    7.186939e+02    
3.483646e+05    7.008314e+02    5.644941e+02    5.894860e+02    6.452272e+02    7.013928e+02    7.535154e+02    7.638150e+02    
4.655746e+05    7.470082e+02    5.706163e+02    6.008592e+02    6.663472e+02    7.335891e+02    8.031481e+02    8.117690e+02    
6.222210e+05    7.954586e+02    5.754384e+02    6.111963e+02    6.865713e+02    7.744359e+02    8.560500e+02    8.627336e+02    
8.315722e+05    8.462056e+02    5.795315e+02    6.206412e+02    7.048348e+02    8.248141e+02    9.124365e+02    9.168979e+02    
1.111361e+06    8.992656e+02    5.829789e+02    6.286975e+02    7.201541e+02    8.785724e+02    9.725370e+02    9.744627e+02    
1.485288e+06    9.546492e+02    5.854060e+02    6.346189e+02    7.319415e+02    9.243782e+02    1.036596e+03    1.035642e+03    
1.985025e+06    1.012365e+03    5.869356e+02    6.389452e+02    7.411658e+02    9.581272e+02    1.089974e+03    1.100048e+03    
2.652902e+06    1.072431e+03    5.878907e+02    6.422439e+02    7.486298e+02    9.838721e+02    1.130656e+03    1.147747e+03    
3.545492e+06    1.134853e+03    5.885107e+02    6.447728e+02    7.546777e+02    1.004142e+03    1.162658e+03    1.185095e+03    
4.738401e+06    1.199640e+03    5.888717e+02    6.465705e+02    7.594821e+02    1.020402e+03    1.188256e+03    1.216901e+03    
6.332675e+06    1.266816e+03    5.890243e+02    6.476408e+02    7.630710e+02    1.033358e+03    1.208776e+03    1.243887e+03    
8.463354e+06    1.336413e+03    5.890614e+02    6.481018e+02    7.654077e+02    1.043356e+03    1.225100e+03    1.266255e+03    
1.131092e+07    1.408474e+03    nan             6.482165e+02    7.665782e+02    1.050415e+03    1.237351e+03    1.284291e+03    
1.511657e+07    1.483051e+03    nan             6.482272e+02    7.669280e+02    1.054385e+03    1.245747e+03    1.297601e+03    
2.020265e+07    1.560203e+03    nan             6.482269e+02    7.669690e+02    1.056083e+03    1.250875e+03    1.306438e+03    
2.700000e+07    1.640000e+03    nan             6.482267e+02    7.669641e+02    1.056830e+03    1.253817e+03    1.312122e+03    
