# pressure  , U_LW        , D_LW        , N_LW        , U_SW        , D_SW        , N_SW        , U           , D           , N           , C           , tot      
# [Pa]      , [W m-2]     , [W m-2]     , [W m-2]     , [W m-2]     , [W m-2]     , [W m-2]     , [W m-2]     , [W m-2]     , [W m-2]     , [W m-2]     , [W m-2]  
1.00000e+00 , +9.0082e+03 , +4.9407e-08 , +9.0082e+03 , +9.4261e+02 , +9.9508e+03 , -9.0082e+03 , +9.9508e+03 , +9.9508e+03 , +1.3041e-07 , +0.0000e+00, +1.3041e-07 
1.47653e+00 , +9.0140e+03 , +4.1051e+01 , +8.9730e+03 , +9.4261e+02 , +9.9156e+03 , -8.9730e+03 , +9.9567e+03 , +9.9567e+03 , +1.2539e-07 , +0.0000e+00, +1.2539e-07 
2.18016e+00 , +9.0159e+03 , +6.2661e+01 , +8.9532e+03 , +9.4261e+02 , +9.8959e+03 , -8.9532e+03 , +9.9585e+03 , +9.9585e+03 , +1.1525e-07 , +0.0000e+00, +1.1525e-07 
3.21908e+00 , +9.0127e+03 , +7.8763e+01 , +8.9339e+03 , +9.4260e+02 , +9.8765e+03 , -8.9339e+03 , +9.9553e+03 , +9.9553e+03 , +1.1342e-07 , +0.0000e+00, +1.1342e-07 
4.75308e+00 , +9.0051e+03 , +8.8847e+01 , +8.9163e+03 , +9.4260e+02 , +9.8589e+03 , -8.9163e+03 , +9.9477e+03 , +9.9477e+03 , +1.0481e-07 , +0.0000e+00, +1.0481e-07 
7.01808e+00 , +8.9974e+03 , +9.6254e+01 , +8.9011e+03 , +9.4259e+02 , +9.8437e+03 , -8.9011e+03 , +9.9400e+03 , +9.9400e+03 , +8.5720e-08 , +0.0000e+00, +8.5720e-08 
1.03624e+01 , +8.9926e+03 , +1.0578e+02 , +8.8869e+03 , +9.4259e+02 , +9.8294e+03 , -8.8869e+03 , +9.9352e+03 , +9.9352e+03 , +9.7236e-08 , +0.0000e+00, +9.7236e-08 
1.53005e+01 , +8.9916e+03 , +1.2102e+02 , +8.8706e+03 , +9.4257e+02 , +9.8132e+03 , -8.8706e+03 , +9.9342e+03 , +9.9342e+03 , +9.0989e-08 , +0.0000e+00, +9.0989e-08 
2.25917e+01 , +8.9949e+03 , +1.4577e+02 , +8.8492e+03 , +9.4255e+02 , +9.7917e+03 , -8.8492e+03 , +9.9375e+03 , +9.9375e+03 , +8.6873e-08 , +0.0000e+00, +8.6873e-08 
3.33575e+01 , +9.0032e+03 , +1.8387e+02 , +8.8193e+03 , +9.4253e+02 , +9.7618e+03 , -8.8193e+03 , +9.9457e+03 , +9.9457e+03 , +8.4890e-08 , +0.0000e+00, +8.4890e-08 
4.92535e+01 , +9.0200e+03 , +2.4314e+02 , +8.7769e+03 , +9.4248e+02 , +9.7194e+03 , -8.7769e+03 , +9.9625e+03 , +9.9625e+03 , +7.9923e-08 , +0.0000e+00, +7.9923e-08 
7.27245e+01 , +9.0512e+03 , +3.3564e+02 , +8.7155e+03 , +9.4242e+02 , +9.6580e+03 , -8.7155e+03 , +9.9936e+03 , +9.9936e+03 , +8.4765e-08 , +0.0000e+00, +8.4765e-08 
1.07380e+02 , +9.1032e+03 , +4.7780e+02 , +8.6254e+03 , +9.4233e+02 , +9.5677e+03 , -8.6254e+03 , +1.0045e+04 , +1.0045e+04 , +8.3533e-08 , +0.0000e+00, +8.3533e-08 
1.58551e+02 , +9.1893e+03 , +6.9524e+02 , +8.4940e+03 , +9.4220e+02 , +9.4362e+03 , -8.4940e+03 , +1.0131e+04 , +1.0131e+04 , +8.3490e-08 , +0.0000e+00, +8.3490e-08 
2.34106e+02 , +9.3276e+03 , +1.0159e+03 , +8.3116e+03 , +9.4201e+02 , +9.2536e+03 , -8.3116e+03 , +1.0270e+04 , +1.0270e+04 , +8.7979e-08 , +0.0000e+00, +8.7979e-08 
3.45665e+02 , +9.5370e+03 , +1.4624e+03 , +8.0745e+03 , +9.4172e+02 , +9.0163e+03 , -8.0745e+03 , +1.0479e+04 , +1.0479e+04 , +1.0473e-07 , +0.0000e+00, +1.0473e-07 
5.10387e+02 , +9.8465e+03 , +2.0577e+03 , +7.7888e+03 , +9.4130e+02 , +8.7301e+03 , -7.7888e+03 , +1.0788e+04 , +1.0788e+04 , +9.7679e-08 , +0.0000e+00, +9.7679e-08 
7.53604e+02 , +1.0319e+04 , +2.8593e+03 , +7.4592e+03 , +9.4068e+02 , +8.3999e+03 , -7.4592e+03 , +1.1259e+04 , +1.1259e+04 , +9.8679e-08 , +0.0000e+00, +9.8679e-08 
1.11272e+03 , +1.1103e+04 , +4.0213e+03 , +7.0817e+03 , +9.3977e+02 , +8.0215e+03 , -7.0817e+03 , +1.2043e+04 , +1.2043e+04 , +9.9351e-08 , +0.0000e+00, +9.9351e-08 
1.64297e+03 , +1.2553e+04 , +5.9507e+03 , +6.6024e+03 , +9.3843e+02 , +7.5408e+03 , -6.6024e+03 , +1.3492e+04 , +1.3492e+04 , +9.4163e-08 , +0.0000e+00, +9.4163e-08 
2.42591e+03 , +1.5099e+04 , +9.1226e+03 , +5.9768e+03 , +9.3649e+02 , +6.9133e+03 , -5.9768e+03 , +1.6036e+04 , +1.6036e+04 , +8.7013e-08 , +0.0000e+00, +8.7013e-08 
3.58194e+03 , +1.9362e+04 , +1.4122e+04 , +5.2404e+03 , +9.3364e+02 , +6.1740e+03 , -5.2404e+03 , +2.0296e+04 , +2.0296e+04 , +7.3880e-08 , +0.0000e+00, +7.3880e-08 
5.28886e+03 , +2.6026e+04 , +2.1578e+04 , +4.4477e+03 , +9.2946e+02 , +5.3772e+03 , -4.4477e+03 , +2.6955e+04 , +2.6955e+04 , +5.4644e-08 , +0.0000e+00, +5.4644e-08 
7.80918e+03 , +3.6721e+04 , +3.3371e+04 , +3.3508e+03 , +9.2342e+02 , +4.5136e+03 , -3.5901e+03 , +3.7645e+04 , +3.7884e+04 , -2.3933e+02 , +2.3933e+02, +2.0078e-06 
1.15305e+04 , +5.3370e+04 , +5.1320e+04 , +2.0497e+03 , +9.1467e+02 , +3.7783e+03 , -2.8637e+03 , +5.4285e+04 , +5.5099e+04 , -8.1392e+02 , +8.1392e+02, +3.4060e-06 
1.70252e+04 , +7.8465e+04 , +7.7152e+04 , +1.3130e+03 , +9.0214e+02 , +3.2872e+03 , -2.3851e+03 , +7.9367e+04 , +8.0439e+04 , -1.0720e+03 , +1.0720e+03, +7.0569e-06 
2.51383e+04 , +1.1578e+05 , +1.1482e+05 , +9.6128e+02 , +8.8437e+02 , +2.9320e+03 , -2.0477e+03 , +1.1666e+05 , +1.1775e+05 , -1.0864e+03 , +1.0864e+03, +1.7249e-05 
3.71176e+04 , +1.7101e+05 , +1.7019e+05 , +8.1257e+02 , +8.5959e+02 , +2.5793e+03 , -1.7198e+03 , +1.7186e+05 , +1.7277e+05 , -9.0719e+02 , +9.0719e+02, +6.5912e-05 
5.48055e+04 , +2.5276e+05 , +2.5193e+05 , +8.3022e+02 , +8.2587e+02 , +2.2209e+03 , -1.3951e+03 , +2.5359e+05 , +2.5415e+05 , -5.6484e+02 , +5.6484e+02, +8.2733e-04 
8.09222e+04 , +3.7607e+05 , +3.7497e+05 , +1.0947e+03 , +7.8097e+02 , +1.8757e+03 , -1.0947e+03 , +3.7685e+05 , +3.7685e+05 , -1.6071e-09 , +0.0000e+00, -1.6071e-09 
1.19484e+05 , +5.0787e+05 , +5.0705e+05 , +8.1823e+02 , +7.2322e+02 , +1.5414e+03 , -8.1823e+02 , +5.0859e+05 , +5.0859e+05 , -9.2134e-09 , +0.0000e+00, -9.2134e-09 
1.76423e+05 , +6.0410e+05 , +6.0353e+05 , +5.7639e+02 , +6.5178e+02 , +1.2282e+03 , -5.7639e+02 , +6.0475e+05 , +6.0475e+05 , -9.0773e-09 , +0.0000e+00, -9.0773e-09 
2.60495e+05 , +6.7578e+05 , +6.7539e+05 , +3.8572e+02 , +5.6708e+02 , +9.5280e+02 , -3.8572e+02 , +6.7634e+05 , +6.7634e+05 , -6.5960e-09 , +0.0000e+00, -6.5960e-09 
3.84630e+05 , +7.3126e+05 , +7.3101e+05 , +2.4625e+02 , +4.7123e+02 , +7.1748e+02 , -2.4625e+02 , +7.3173e+05 , +7.3173e+05 , -3.9729e-09 , +0.0000e+00, -3.9729e-09 
5.67919e+05 , +7.7461e+05 , +7.7447e+05 , +1.4609e+02 , +3.6945e+02 , +5.1554e+02 , -1.4609e+02 , +7.7498e+05 , +7.7498e+05 , -3.1249e-09 , +0.0000e+00, -3.1249e-09 
8.38552e+05 , +8.0696e+05 , +8.0688e+05 , +7.8311e+01 , +2.6940e+02 , +3.4771e+02 , -7.8311e+01 , +8.0723e+05 , +8.0723e+05 , -4.4201e-10 , +0.0000e+00, -4.4201e-10 
1.23815e+06 , +8.2945e+05 , +8.2941e+05 , +3.7607e+01 , +1.7940e+02 , +2.1700e+02 , -3.7607e+01 , +8.2962e+05 , +8.2962e+05 , -1.8217e-09 , +0.0000e+00, -1.8217e-09 
1.82817e+06 , +8.4403e+05 , +8.4401e+05 , +1.6438e+01 , +1.0592e+02 , +1.2236e+02 , -1.6438e+01 , +8.4413e+05 , +8.4413e+05 , -2.3171e-10 , +0.0000e+00, -2.3171e-10 
2.69936e+06 , +8.5273e+05 , +8.5272e+05 , +6.4038e+00 , +5.2902e+01 , +5.9306e+01 , -6.4038e+00 , +8.5278e+05 , +8.5278e+05 , -1.6061e-09 , +0.0000e+00, -1.6061e-09 
3.98570e+06 , +8.5736e+05 , +8.5736e+05 , +2.0727e+00 , +2.0824e+01 , +2.2897e+01 , -2.0727e+00 , +8.5738e+05 , +8.5738e+05 , -2.2707e-09 , +0.0000e+00, -2.2707e-09 
5.88503e+06 , +8.5936e+05 , +8.5936e+05 , +4.9830e-01 , +5.8242e+00 , +6.3225e+00 , -4.9830e-01 , +8.5936e+05 , +8.5936e+05 , +1.5315e-08 , +0.0000e+00, +1.5315e-08 
8.68945e+06 , +8.6000e+05 , +8.6000e+05 , +7.5979e-02 , +9.9528e-01 , +1.0713e+00 , -7.5979e-02 , +8.6001e+05 , +8.6001e+05 , +9.6160e-09 , +0.0000e+00, +9.6160e-09 
1.28303e+07 , +8.6015e+05 , +8.6015e+05 , +5.8838e-03 , +8.2479e-02 , +8.8363e-02 , -5.8838e-03 , +8.6015e+05 , +8.6015e+05 , +6.6285e-09 , +0.0000e+00, +6.6285e-09 
1.89444e+07 , +8.6017e+05 , +8.6017e+05 , +1.6136e-04 , +2.3250e-03 , +2.4864e-03 , -1.6140e-04 , +8.6017e+05 , +8.6017e+05 , -3.6297e-08 , +0.0000e+00, -3.6297e-08 
2.79720e+07 , +8.6018e+05 , +8.6018e+05 , +1.6261e-06 , +6.0868e-07 , +2.3517e-06 , -1.7430e-06 , +8.6018e+05 , +8.6018e+05 , -1.1691e-07 , +0.0000e+00, -1.1691e-07 
2.80000e+07 , +8.6018e+05 , +8.6018e+05 , +1.7327e-06 , +1.9352e-07 , +1.9352e-06 , -1.7417e-06 , +8.6018e+05 , +8.6018e+05 , -8.9255e-09 , +0.0000e+00, -8.9255e-09 
