# pressure  , U_LW        , D_LW        , N_LW        , U_SW        , D_SW        , N_SW        , U           , D           , N           , C       
# [Pa]      , [W m-2]     , [W m-2]     , [W m-2]     , [W m-2]     , [W m-2]     , [W m-2]     , [W m-2]     , [W m-2]     , [W m-2]     , [W m-2] 
1.00000e+00 , +4.8633e+04 , +1.7150e-09 , +4.8633e+04 , +0.0000e+00 , +2.7866e+02 , -2.7866e+02 , +4.8633e+04 , +2.7866e+02 , +4.8354e+04 , +0.0000e+00 
1.27145e+00 , +4.8633e+04 , +5.1032e-01 , +4.8632e+04 , +0.0000e+00 , +2.7843e+02 , -2.7843e+02 , +4.8633e+04 , +2.7894e+02 , +4.8354e+04 , +6.6282e-02 
1.61659e+00 , +4.8633e+04 , +9.2689e-01 , +4.8632e+04 , +0.0000e+00 , +2.7834e+02 , -2.7834e+02 , +4.8633e+04 , +2.7926e+02 , +4.8354e+04 , +0.0000e+00 
2.05542e+00 , +4.8633e+04 , +1.3705e+00 , +4.8632e+04 , +0.0000e+00 , +2.7825e+02 , -2.7825e+02 , +4.8633e+04 , +2.7962e+02 , +4.8354e+04 , +0.0000e+00 
2.61337e+00 , +4.8634e+04 , +1.8960e+00 , +4.8632e+04 , +0.0000e+00 , +2.7815e+02 , -2.7815e+02 , +4.8634e+04 , +2.8005e+02 , +4.8354e+04 , +0.0000e+00 
3.32278e+00 , +4.8634e+04 , +2.5336e+00 , +4.8632e+04 , +0.0000e+00 , +2.7805e+02 , -2.7805e+02 , +4.8634e+04 , +2.8059e+02 , +4.8354e+04 , +0.0000e+00 
4.22477e+00 , +4.8635e+04 , +3.3345e+00 , +4.8632e+04 , +0.0000e+00 , +2.7794e+02 , -2.7794e+02 , +4.8635e+04 , +2.8128e+02 , +4.8354e+04 , +0.0000e+00 
5.37159e+00 , +4.8636e+04 , +4.3694e+00 , +4.8632e+04 , +0.0000e+00 , +2.7781e+02 , -2.7781e+02 , +4.8636e+04 , +2.8218e+02 , +4.8354e+04 , +0.0000e+00 
6.82973e+00 , +4.8637e+04 , +5.7023e+00 , +4.8632e+04 , +0.0000e+00 , +2.7767e+02 , -2.7767e+02 , +4.8637e+04 , +2.8337e+02 , +4.8354e+04 , +0.0000e+00 
8.68368e+00 , +4.8639e+04 , +7.4597e+00 , +4.8631e+04 , +0.0000e+00 , +2.7751e+02 , -2.7751e+02 , +4.8639e+04 , +2.8497e+02 , +4.8354e+04 , +0.0000e+00 
1.10409e+01 , +4.8641e+04 , +9.8539e+00 , +4.8631e+04 , +0.0000e+00 , +2.7731e+02 , -2.7731e+02 , +4.8641e+04 , +2.8716e+02 , +4.8354e+04 , +0.0000e+00 
1.40380e+01 , +4.8644e+04 , +1.3328e+01 , +4.8631e+04 , +0.0000e+00 , +2.7707e+02 , -2.7707e+02 , +4.8644e+04 , +2.9040e+02 , +4.8354e+04 , +0.0000e+00 
1.78486e+01 , +4.8649e+04 , +1.8220e+01 , +4.8631e+04 , +0.0000e+00 , +2.7679e+02 , -2.7679e+02 , +4.8649e+04 , +2.9501e+02 , +4.8354e+04 , +0.0000e+00 
2.26937e+01 , +4.8655e+04 , +2.5057e+01 , +4.8630e+04 , +0.0000e+00 , +2.7645e+02 , -2.7645e+02 , +4.8655e+04 , +3.0151e+02 , +4.8354e+04 , +0.0000e+00 
2.88540e+01 , +4.8664e+04 , +3.4553e+01 , +4.8630e+04 , +0.0000e+00 , +2.7604e+02 , -2.7604e+02 , +4.8664e+04 , +3.1060e+02 , +4.8354e+04 , +0.0000e+00 
3.66865e+01 , +4.8677e+04 , +4.7469e+01 , +4.8629e+04 , +0.0000e+00 , +2.7555e+02 , -2.7555e+02 , +4.8677e+04 , +3.2302e+02 , +4.8354e+04 , +0.0000e+00 
4.66452e+01 , +4.8694e+04 , +6.5565e+01 , +4.8629e+04 , +0.0000e+00 , +2.7495e+02 , -2.7495e+02 , +4.8694e+04 , +3.4051e+02 , +4.8354e+04 , +0.0000e+00 
5.93072e+01 , +4.8718e+04 , +9.0147e+01 , +4.8628e+04 , +0.0000e+00 , +2.7420e+02 , -2.7420e+02 , +4.8718e+04 , +3.6435e+02 , +4.8354e+04 , +0.0000e+00 
7.54063e+01 , +4.8751e+04 , +1.2382e+02 , +4.8627e+04 , +0.0000e+00 , +2.7327e+02 , -2.7327e+02 , +4.8751e+04 , +3.9709e+02 , +4.8354e+04 , +0.0000e+00 
9.58756e+01 , +4.8795e+04 , +1.6884e+02 , +4.8626e+04 , +0.0000e+00 , +2.7211e+02 , -2.7211e+02 , +4.8795e+04 , +4.4095e+02 , +4.8354e+04 , +0.0000e+00 
1.21901e+02 , +4.8853e+04 , +2.2802e+02 , +4.8624e+04 , +0.0000e+00 , +2.7066e+02 , -2.7066e+02 , +4.8853e+04 , +4.9868e+02 , +4.8354e+04 , +0.0000e+00 
1.54992e+02 , +4.8934e+04 , +3.1092e+02 , +4.8623e+04 , +0.0000e+00 , +2.6879e+02 , -2.6879e+02 , +4.8934e+04 , +5.7971e+02 , +4.8354e+04 , +0.0000e+00 
1.97065e+02 , +4.9046e+04 , +4.2528e+02 , +4.8620e+04 , +0.0000e+00 , +2.6640e+02 , -2.6640e+02 , +4.9046e+04 , +6.9168e+02 , +4.8354e+04 , +0.0000e+00 
2.50559e+02 , +4.9202e+04 , +5.8488e+02 , +4.8617e+04 , +0.0000e+00 , +2.6334e+02 , -2.6334e+02 , +4.9202e+04 , +8.4822e+02 , +4.8354e+04 , +0.0000e+00 
3.18574e+02 , +4.9414e+04 , +8.0026e+02 , +4.8613e+04 , +0.0000e+00 , +2.5951e+02 , -2.5951e+02 , +4.9414e+04 , +1.0598e+03 , +4.8354e+04 , +0.0000e+00 
4.05052e+02 , +4.9702e+04 , +1.0937e+03 , +4.8609e+04 , +0.0000e+00 , +2.5478e+02 , -2.5478e+02 , +4.9702e+04 , +1.3485e+03 , +4.8354e+04 , +0.0000e+00 
5.15005e+02 , +5.0099e+04 , +1.4960e+03 , +4.8603e+04 , +0.0000e+00 , +2.4902e+02 , -2.4902e+02 , +5.0099e+04 , +1.7450e+03 , +4.8354e+04 , +0.0000e+00 
6.54804e+02 , +5.0653e+04 , +2.0570e+03 , +4.8596e+04 , +0.0000e+00 , +2.4213e+02 , -2.4213e+02 , +5.0653e+04 , +2.2991e+03 , +4.8354e+04 , +0.0000e+00 
8.32553e+02 , +5.1436e+04 , +2.8481e+03 , +4.8588e+04 , +0.0000e+00 , +2.3406e+02 , -2.3406e+02 , +5.1436e+04 , +3.0822e+03 , +4.8354e+04 , +0.0000e+00 
1.05855e+03 , +5.2495e+04 , +3.9157e+03 , +4.8579e+04 , +0.0000e+00 , +2.2496e+02 , -2.2496e+02 , +5.2495e+04 , +4.1407e+03 , +4.8354e+04 , +0.0000e+00 
1.34590e+03 , +5.3953e+04 , +5.3846e+03 , +4.8569e+04 , +0.0000e+00 , +2.1493e+02 , -2.1493e+02 , +5.3953e+04 , +5.5995e+03 , +4.8354e+04 , +8.3690e+00 
1.71125e+03 , +5.5955e+04 , +7.3968e+03 , +4.8558e+04 , +0.0000e+00 , +2.0423e+02 , -2.0423e+02 , +5.5955e+04 , +7.6011e+03 , +4.8354e+04 , +7.6244e+01 
2.17577e+03 , +5.8735e+04 , +1.0188e+04 , +4.8547e+04 , +0.0000e+00 , +1.9307e+02 , -1.9307e+02 , +5.8735e+04 , +1.0381e+04 , +4.8354e+04 , +2.6415e+02 
2.76639e+03 , +6.2676e+04 , +1.4141e+04 , +4.8536e+04 , +0.0000e+00 , +1.8169e+02 , -1.8169e+02 , +6.2676e+04 , +1.4322e+04 , +4.8354e+04 , +5.1479e+02 
3.51734e+03 , +6.8119e+04 , +1.9595e+04 , +4.8524e+04 , +0.0000e+00 , +1.7035e+02 , -1.7035e+02 , +6.8119e+04 , +1.9766e+04 , +4.8354e+04 , +8.2387e+02 
4.47214e+03 , +7.5713e+04 , +2.7200e+04 , +4.8513e+04 , +0.0000e+00 , +1.5933e+02 , -1.5933e+02 , +7.5713e+04 , +2.7360e+04 , +4.8354e+04 , +1.1899e+03 
5.68611e+03 , +8.6183e+04 , +3.7680e+04 , +4.8503e+04 , +0.0000e+00 , +1.4892e+02 , -1.4892e+02 , +8.6183e+04 , +3.7829e+04 , +4.8354e+04 , +1.6809e+03 
7.22963e+03 , +1.0058e+05 , +5.2089e+04 , +4.8493e+04 , +0.0000e+00 , +1.3937e+02 , -1.3937e+02 , +1.0058e+05 , +5.2228e+04 , +4.8354e+04 , +2.1304e+03 
9.19213e+03 , +1.2014e+05 , +7.1655e+04 , +4.8485e+04 , +0.0000e+00 , +1.3086e+02 , -1.3086e+02 , +1.2014e+05 , +7.1786e+04 , +4.8354e+04 , +2.5523e+03 
1.16874e+04 , +1.4634e+05 , +9.7865e+04 , +4.8477e+04 , +0.0000e+00 , +1.2346e+02 , -1.2346e+02 , +1.4634e+05 , +9.7989e+04 , +4.8354e+04 , +2.9197e+03 
1.48599e+04 , +1.8099e+05 , +1.3252e+05 , +4.8471e+04 , +0.0000e+00 , +1.1711e+02 , -1.1711e+02 , +1.8099e+05 , +1.3264e+05 , +4.8354e+04 , +3.0781e+03 
1.88937e+04 , +2.2533e+05 , +1.7686e+05 , +4.8466e+04 , +0.0000e+00 , +1.1179e+02 , -1.1179e+02 , +2.2533e+05 , +1.7697e+05 , +4.8354e+04 , +3.0126e+03 
2.40225e+04 , +2.8035e+05 , +2.3189e+05 , +4.8461e+04 , +0.0000e+00 , +1.0731e+02 , -1.0731e+02 , +2.8035e+05 , +2.3200e+05 , +4.8354e+04 , +2.1502e+03 
3.05435e+04 , +3.4603e+05 , +2.9758e+05 , +4.8457e+04 , +0.0000e+00 , +1.0351e+02 , -1.0351e+02 , +3.4603e+05 , +2.9768e+05 , +4.8354e+04 , +1.4347e+03 
3.88346e+04 , +4.2261e+05 , +3.7415e+05 , +4.8454e+04 , +0.0000e+00 , +1.0018e+02 , -1.0018e+02 , +4.2261e+05 , +3.7425e+05 , +4.8354e+04 , +3.2106e+01 
4.93764e+04 , +5.0683e+05 , +4.5838e+05 , +4.8451e+04 , +0.0000e+00 , +9.7124e+01 , -9.7124e+01 , +5.0683e+05 , +4.5847e+05 , +4.8354e+04 , +0.0000e+00 
6.27798e+04 , +5.9940e+05 , +5.5095e+05 , +4.8448e+04 , +0.0000e+00 , +9.4182e+01 , -9.4182e+01 , +5.9940e+05 , +5.5105e+05 , +4.8354e+04 , +0.0000e+00 
7.98215e+04 , +6.9845e+05 , +6.5001e+05 , +4.8445e+04 , +0.0000e+00 , +9.1253e+01 , -9.1253e+01 , +6.9845e+05 , +6.5010e+05 , +4.8354e+04 , +0.0000e+00 
1.01489e+05 , +8.0194e+05 , +7.5350e+05 , +4.8442e+04 , +0.0000e+00 , +8.8256e+01 , -8.8256e+01 , +8.0194e+05 , +7.5359e+05 , +4.8354e+04 , +0.0000e+00 
1.29039e+05 , +9.0809e+05 , +8.5965e+05 , +4.8439e+04 , +0.0000e+00 , +8.5168e+01 , -8.5168e+01 , +9.0809e+05 , +8.5973e+05 , +4.8354e+04 , +0.0000e+00 
1.64067e+05 , +1.0186e+06 , +9.7020e+05 , +4.8436e+04 , +0.0000e+00 , +8.1992e+01 , -8.1992e+01 , +1.0186e+06 , +9.7029e+05 , +4.8354e+04 , +0.0000e+00 
2.08604e+05 , +1.1325e+06 , +1.0840e+06 , +4.8433e+04 , +0.0000e+00 , +7.8732e+01 , -7.8732e+01 , +1.1325e+06 , +1.0841e+06 , +4.8354e+04 , +0.0000e+00 
2.65230e+05 , +1.2424e+06 , +1.1939e+06 , +4.8429e+04 , +0.0000e+00 , +7.5425e+01 , -7.5425e+01 , +1.2424e+06 , +1.1940e+06 , +4.8354e+04 , +0.0000e+00 
3.37227e+05 , +1.3520e+06 , +1.3036e+06 , +4.8426e+04 , +0.0000e+00 , +7.2101e+01 , -7.2101e+01 , +1.3520e+06 , +1.3037e+06 , +4.8354e+04 , +0.0000e+00 
4.28769e+05 , +1.4666e+06 , +1.4182e+06 , +4.8423e+04 , +0.0000e+00 , +6.8804e+01 , -6.8804e+01 , +1.4666e+06 , +1.4183e+06 , +4.8354e+04 , +0.0000e+00 
5.45159e+05 , +1.5792e+06 , +1.5308e+06 , +4.8419e+04 , +0.0000e+00 , +6.5559e+01 , -6.5559e+01 , +1.5792e+06 , +1.5308e+06 , +4.8354e+04 , +0.0000e+00 
6.93145e+05 , +1.7021e+06 , +1.6537e+06 , +4.8416e+04 , +0.0000e+00 , +6.2382e+01 , -6.2382e+01 , +1.7021e+06 , +1.6537e+06 , +4.8354e+04 , +0.0000e+00 
8.81301e+05 , +1.8260e+06 , +1.7775e+06 , +4.8413e+04 , +0.0000e+00 , +5.9303e+01 , -5.9303e+01 , +1.8260e+06 , +1.7776e+06 , +4.8354e+04 , +0.0000e+00 
1.12053e+06 , +1.9623e+06 , +1.9139e+06 , +4.8410e+04 , +0.0000e+00 , +5.6344e+01 , -5.6344e+01 , +1.9623e+06 , +1.9139e+06 , +4.8354e+04 , +0.0000e+00 
1.42471e+06 , +2.1022e+06 , +2.0538e+06 , +4.8407e+04 , +0.0000e+00 , +5.3519e+01 , -5.3519e+01 , +2.1022e+06 , +2.0539e+06 , +4.8354e+04 , +0.0000e+00 
1.81145e+06 , +2.2528e+06 , +2.2044e+06 , +4.8405e+04 , +0.0000e+00 , +5.0833e+01 , -5.0833e+01 , +2.2528e+06 , +2.2045e+06 , +4.8354e+04 , +0.0000e+00 
2.30317e+06 , +2.4099e+06 , +2.3615e+06 , +4.8402e+04 , +0.0000e+00 , +4.8278e+01 , -4.8278e+01 , +2.4099e+06 , +2.3615e+06 , +4.8354e+04 , +0.0000e+00 
2.92837e+06 , +2.5799e+06 , +2.5315e+06 , +4.8400e+04 , +0.0000e+00 , +4.5862e+01 , -4.5862e+01 , +2.5799e+06 , +2.5316e+06 , +4.8354e+04 , +0.0000e+00 
3.72329e+06 , +2.7613e+06 , +2.7129e+06 , +4.8397e+04 , +0.0000e+00 , +4.3598e+01 , -4.3598e+01 , +2.7613e+06 , +2.7129e+06 , +4.8354e+04 , +0.0000e+00 
4.73399e+06 , +2.9543e+06 , +2.9059e+06 , +4.8395e+04 , +0.0000e+00 , +4.1524e+01 , -4.1524e+01 , +2.9543e+06 , +2.9059e+06 , +4.8354e+04 , +0.0000e+00 
6.01905e+06 , +3.1603e+06 , +3.1119e+06 , +4.8393e+04 , +0.0000e+00 , +3.9644e+01 , -3.9644e+01 , +3.1603e+06 , +3.1120e+06 , +4.8354e+04 , +0.0000e+00 
7.65294e+06 , +3.3815e+06 , +3.3331e+06 , +4.8392e+04 , +0.0000e+00 , +3.7973e+01 , -3.7973e+01 , +3.3815e+06 , +3.3331e+06 , +4.8354e+04 , +0.0000e+00 
9.73036e+06 , +3.6222e+06 , +3.5738e+06 , +4.8390e+04 , +0.0000e+00 , +3.6475e+01 , -3.6475e+01 , +3.6222e+06 , +3.5738e+06 , +4.8354e+04 , +0.0000e+00 
1.23717e+07 , +3.8881e+06 , +3.8397e+06 , +4.8389e+04 , +0.0000e+00 , +3.5136e+01 , -3.5136e+01 , +3.8881e+06 , +3.8397e+06 , +4.8354e+04 , +0.0000e+00 
1.80000e+07 , +4.4060e+06 , +4.3576e+06 , +4.8387e+04 , +0.0000e+00 , +3.3311e+01 , -3.3311e+01 , +4.4060e+06 , +4.3577e+06 , +4.8354e+04 , +0.0000e+00 
2.00000e+07 , +4.5967e+06 , +4.5483e+06 , +4.8387e+04 , +0.0000e+00 , +3.2853e+01 , -3.2853e+01 , +4.5967e+06 , +4.5484e+06 , +4.8354e+04 , +0.0000e+00 
